0.0007922236330901575 	1.681750414633145e-15 	5.086507705005346e-17 	5e-17 	1e-15 	5e-17 	1.681753811021523e-15
0.002388276181298533 	2.431655655302406e-15 	8.412790045947425e-19 	0 	9.999999999999999e-16 	0 	2.431659051197911e-15
0.004007709299310564 	2.499623576455948e-15 	-5.871040981862253e-20 	0 	9.999999999999999e-16 	0 	2.49962357494156e-15
0.005650865489035071 	2.49909826002778e-15 	-7.989684426013385e-20 	0 	1e-15 	0 	2.499098257335554e-15
0.007318092269690477 	2.498236311767683e-15 	-9.904165249107177e-20 	0 	1e-15 	0 	2.498236307705126e-15
0.009009742251303377 	2.496976645682087e-15 	-1.162479846778003e-19 	0 	1e-15 	0 	2.496976640143364e-15
0.01072617320928379 	2.495269207086078e-15 	-1.316273289131294e-19 	0 	1e-15 	0 	2.49526920003401e-15
0.0124677481600928 	2.493072727000211e-15 	-1.452754663885161e-19 	0 	1e-15 	0 	2.49307271845288e-15
0.01423483543801872 	2.490352988733193e-15 	-1.572798099915853e-19 	0 	1e-15 	0 	2.490352978752741e-15
0.01602780877307795 	2.487081472199806e-15 	-1.677279457229656e-19 	0 	1e-15 	0 	2.487081460882258e-15
0.01784704737005697 	2.483234282386936e-15 	-1.767143414092999e-19 	0 	1e-15 	0 	2.483234269852487e-15
0.01969293598871222 	2.478791295569136e-15 	-1.843426626379658e-19 	0 	1e-15 	0 	2.478791281953105e-15
0.02156586502514488 	2.47373547511843e-15 	-1.907239881035772e-19 	0 	1e-15 	0 	2.47373546056336e-15
0.02301161199306481 	2.469477358769588e-15 	-1.948544781762258e-19 	0 	1e-15 	0 	2.469477343590828e-15
0.02396870378528121 	2.466477278711708e-15 	-1.972112686788074e-19 	0 	1e-15 	0 	2.466477263170552e-15
0.0253944346140809 	2.46172942363446e-15 	-2.002093970877835e-19 	0 	1e-15 	0 	2.461729407626477e-15
0.02735088488967669 	2.454756107278236e-15 	-2.03545857779778e-19 	0 	1e-15 	0 	2.454756090743593e-15
0.02881111476256352 	2.449213935003414e-15 	-2.055229298968852e-19 	0 	1e-15 	0 	2.449213918153439e-15
0.02981088702527498 	2.445231465596356e-15 	-2.066161179923848e-19 	0 	1e-15 	0 	2.445231448570886e-15
0.03135018538729642 	2.438822497018142e-15 	-2.079735260688182e-19 	0 	1e-15 	0 	2.438822479774421e-15
0.03339388144113593 	2.429847192221377e-15 	-2.092845807392367e-19 	0 	1e-15 	0 	2.429847174767099e-15
0.0354675155933782 	2.420191121452835e-15 	-2.101358696553494e-19 	0 	1e-15 	0 	2.420191103863388e-15
0.03757152640715217 	2.409848962381747e-15 	-2.10625231626058e-19 	0 	1e-15 	0 	2.409848944717293e-15
0.03970635887009696 	2.398816097804031e-15 	-2.108326855403869e-19 	0 	1e-15 	0 	2.398816080111931e-15
0.04187246448847452 	2.387088568761693e-15 	-2.108136543014418e-19 	0 	1e-15 	0 	2.387088551080275e-15
0.0440703013826609 	2.374663050640187e-15 	-2.105983180964816e-19 	0 	1e-15 	0 	2.37466303300274e-15
0.04630033438403637 	2.361536846223621e-15 	-2.101949365822572e-19 	0 	1e-15 	0 	2.361536828661876e-15
0.04856303513329498 	2.347707891135848e-15 	-2.095951678111732e-19 	0 	9.999999999999999e-16 	0 	2.3477078736826e-15
0.0508588821801941 	2.333174772147914e-15 	-2.08778865051439e-19 	0 	1e-15 	0 	2.333174754838865e-15
0.05318836108476532 	2.317936762570637e-15 	-2.077199085887483e-19 	0 	1e-15 	0 	2.317936745445256e-15
0.0555519645200079 	2.301993873088124e-15 	-2.063941086824537e-19 	0 	1e-15 	0 	2.301993856189141e-15
0.05795019237608667 	2.285346911095722e-15 	-2.047824718534219e-19 	0 	1e-15 	0 	2.28534689446808e-15
0.06038355186605623 	2.267997545739625e-15 	-2.028665894084256e-19 	0 	1e-15 	0 	2.267997529430163e-15
0.06285255763313395 	2.249948380254516e-15 	-2.006230037942715e-19 	0 	1e-15 	0 	2.249948364312476e-15
0.06415912163288537 	2.240271923606941e-15 	-1.993462937353559e-19 	0 	1e-15 	0 	2.240271907872417e-15
0.06542081660831592 	2.23072572258608e-15 	-1.979536025993501e-19 	0 	1e-15 	0 	2.230725707074578e-15
0.06789960437695824 	2.211766222833322e-15 	-1.950411557974361e-19 	0 	1e-15 	0 	2.211766207783745e-15
0.07041376623556866 	2.192155450849475e-15 	-1.917525382383677e-19 	0 	9.999999999999999e-16 	0 	2.192155436311914e-15
0.07171269709517614 	2.181923700111678e-15 	-1.899638778843048e-19 	0 	9.999999999999999e-16 	0 	2.181923685849871e-15
0.07309560253269132 	2.170843150887785e-15 	-1.878938799172118e-19 	0 	1e-15 	0 	2.170843136938044e-15
0.07575082709832454 	2.149372658552434e-15 	-1.837615335285371e-19 	0 	1e-15 	0 	2.149372645216469e-15
0.07844494804200673 	2.127242425576355e-15 	-1.793225079638417e-19 	0 	9.999999999999999e-16 	0 	2.127242412881289e-15
0.08117853515668305 	2.104464044849459e-15 	-1.746529792894915e-19 	0 	1e-15 	0 	2.104464032807726e-15
0.08262511197794652 	2.092321185413178e-15 	-1.721481376965901e-19 	0 	1e-15 	0 	2.09232117371567e-15
0.08402201156136507 	2.080457564670847e-15 	-1.696969968173518e-19 	0 	1e-15 	0 	2.080457553299238e-15
0.08669556078945283 	2.057625933940458e-15 	-1.649878684968102e-19 	0 	1e-15 	0 	2.057625923184113e-15
0.08811292355138982 	2.045456259177117e-15 	-1.624820321965309e-19 	0 	1e-15 	0 	2.045456248742518e-15
0.08962191739499324 	2.032380774322843e-15 	-1.598133935564105e-19 	0 	1e-15 	0 	2.032380764220007e-15
0.09251923590588462 	2.007158997797175e-15 	-1.547052453099318e-19 	0 	9.999999999999999e-16 	0 	2.007158988318205e-15
0.09545899722842614 	1.981372039982002e-15 	-1.495748044515212e-19 	0 	9.999999999999999e-16 	0 	1.981372031110107e-15
0.09844182310725995 	1.955041429652309e-15 	-1.444795720680066e-19 	0 	1e-15 	0 	1.955041421365166e-15
0.1000202936652384 	1.941065364072535e-15 	-1.418271676709382e-19 	0 	1e-15 	0 	1.941065356084724e-15
0.1015445575912653 	1.927512610958694e-15 	-1.393709386590906e-19 	0 	1e-15 	0 	1.927512603240163e-15
0.1044618715422496 	1.901532772900523e-15 	-1.347929503775463e-19 	0 	1e-15 	0 	1.901532765676435e-15
0.1060084644067325 	1.887738328058398e-15 	-1.324302443561892e-19 	0 	1e-15 	0 	1.887738321085494e-15
0.1076550429494595 	1.873025767666483e-15 	-1.300385326542522e-19 	0 	1e-15 	0 	1.873025760940241e-15
0.1108165286716859 	1.844765617342254e-15 	-1.25547820916604e-19 	0 	1e-15 	0 	1.844765611070731e-15
0.1140243269903833 	1.816090995806479e-15 	-1.211102361957215e-19 	0 	1e-15 	0 	1.816090989968406e-15
0.117279116338662 	1.787031350968665e-15 	-1.165970425681228e-19 	0 	1e-15 	0 	1.787031345554379e-15
0.1205815850879974 	1.757617079547778e-15 	-1.119080638657093e-19 	0 	1e-15 	0 	1.757617074555508e-15
0.1239324316938169 	1.727879390907015e-15 	-1.07052528351038e-19 	0 	1e-15 	0 	1.727879386332606e-15
0.1273323648432196 	1.697850088318866e-15 	-1.021467062162268e-19 	0 	1e-15 	0 	1.697850084147e-15
0.1307821036048602 	1.667561389978053e-15 	-9.732032136769934e-20 	0 	1e-15 	0 	1.667561386182611e-15
0.1342823775810283 	1.6370458464389e-15 	-9.264454389864568e-20 	0 	1e-15 	0 	1.637045842989323e-15
0.1378339270619557 	1.606336281429047e-15 	-8.812973864042969e-20 	0 	1e-15 	0 	1.606336278295946e-15
0.1414375031823838 	1.575465717478888e-15 	-8.376338917508449e-20 	0 	9.999999999999999e-16 	0 	1.575465714635946e-15
0.1450938680804252 	1.544467299795329e-15 	-7.954949906570953e-20 	0 	1e-15 	0 	1.544467297218066e-15
0.1488037950587517 	1.513374218537972e-15 	-7.548920399986982e-20 	0 	1e-15 	0 	1.513374216203798e-15
0.1525680687481439 	1.482219605195469e-15 	-7.154501338006222e-20 	0 	1e-15 	0 	1.482219603086017e-15
0.1563874852734368 	1.451036432968509e-15 	-6.771663639674095e-20 	0 	1e-15 	0 	1.451036431067292e-15
0.1602628524218963 	1.419857423944937e-15 	-6.413938295930973e-20 	0 	1e-15 	0 	1.41985742222984e-15
0.1641949898140618 	1.388714894035011e-15 	-6.104054650700338e-20 	0 	1e-15 	0 	1.388714892474378e-15
0.1681847290770919 	1.357640600322606e-15 	-5.862165962049687e-20 	0 	9.999999999999999e-16 	0 	1.35764059887776e-15
0.1722329140206495 	1.326665710370507e-15 	-5.697926554104518e-20 	0 	1e-15 	0 	1.326665709000855e-15
0.176340400815363 	1.295820816412256e-15 	-5.609741662215019e-20 	0 	1e-15 	0 	1.295820815079354e-15
0.1785140265099595 	1.279669715432155e-15 	-5.584330193187317e-20 	0 	1e-15 	0 	1.279669714108019e-15
0.1806130072088467 	1.26437090269985e-15 	-5.593519781398605e-20 	0 	1e-15 	0 	1.264370901366867e-15
0.1846302811016113 	1.235399754994238e-15 	-5.64635968562111e-20 	0 	9.999999999999999e-16 	0 	1.235399753625419e-15
0.186760009763529 	1.220202622773268e-15 	-5.692791049222986e-20 	0 	1e-15 	0 	1.220202621375574e-15
0.1869745425492139 	1.218688688981861e-15 	-5.699268238821807e-20 	0 	1e-15 	0 	1.218688687580214e-15
0.1891354696009958 	1.203607145374676e-15 	-5.782380667196375e-20 	0 	1e-15 	0 	1.203607143922864e-15
0.193271303643631 	1.175074862395933e-15 	-5.968908124119977e-20 	0 	1e-15 	0 	1.175074860830042e-15
0.1954638861104124 	1.160122423920231e-15 	-6.082140387243941e-20 	0 	1e-15 	0 	1.160122422284422e-15
0.1977982168356281 	1.14456456557092e-15 	-6.216477393433339e-20 	0 	1e-15 	0 	1.144564563848291e-15
0.2022802096876065 	1.115098923734977e-15 	-6.468062514214205e-20 	0 	1e-15 	0 	1.115098921843489e-15
0.2068278592417109 	1.085955143375083e-15 	-6.687473658640549e-20 	0 	1e-15 	0 	1.085955141323495e-15
0.2114421273028072 	1.057157136447939e-15 	-6.841555714078861e-20 	0 	1e-15 	0 	1.057157134268439e-15
0.2161239897652384 	1.028727695062682e-15 	-6.914259944652585e-20 	0 	1e-15 	0 	1.028727692802948e-15
0.2208744368192214 	1.007450360608165e-15 	-6.93831852955144e-20 	0 	1e-15 	0 	1.007450358890008e-15
0.2256944731602669 	1.00014641778062e-15 	-6.962514535445579e-20 	0 	1e-15 	0 	1.000146417205773e-15
0.2305851182016679 	1e-15 	-6.976221155678298e-20 	0 	1e-15 	0 	1e-15
0.2355474062900998 	9.999999999999999e-16 	-6.956300990307446e-20 	0 	9.999999999999999e-16 	0 	9.999999999999999e-16
0.2405823869243804 	1e-15 	-6.902312595703852e-20 	0 	1e-15 	0 	1e-15
0.2456911249774326 	1e-15 	-6.817250109673201e-20 	0 	1e-15 	0 	1e-15
0.2508747009215005 	1e-15 	-6.706120149253468e-20 	0 	1e-15 	0 	1e-15
0.2561342110566631 	1e-15 	-6.56091991405208e-20 	0 	1e-15 	0 	1e-15
0.2614707677426965 	1e-15 	-6.36173161389588e-20 	0 	1e-15 	0 	1e-15
0.2668854996343326 	1e-15 	-6.094443383680442e-20 	0 	1e-15 	0 	1e-15
0.2710652267153666 	1e-15 	-5.842712682935686e-20 	0 	1e-15 	0 	1e-15
0.2738322271460974 	1e-15 	-5.652006717825972e-20 	0 	1e-15 	0 	1e-15
0.2764801311019404 	1e-15 	-5.453040917065573e-20 	0 	1e-15 	0 	1e-15
0.2792876653150896 	1e-15 	-5.224871512153383e-20 	0 	1e-15 	0 	1e-15
0.2836102825518383 	1e-15 	-4.847487980665204e-20 	0 	1e-15 	0 	1e-15
0.289349336140774 	1e-15 	-4.303378930770852e-20 	0 	1e-15 	0 	1e-15
0.2951724611114405 	1e-15 	-3.697690141375018e-20 	0 	1e-15 	0 	1e-15
0.3010808890252994 	1e-15 	-3.027351021025202e-20 	0 	1e-15 	0 	1e-15
0.3070758694849534 	1e-15 	-2.304275452807794e-20 	0 	1e-15 	0 	1e-15
0.3131586703984299 	1e-15 	-1.562272836115886e-20 	0 	1e-15 	0 	1e-15
0.3193305782473385 	1e-15 	-8.531817911529074e-21 	0 	1e-15 	0 	1e-15
0.3255928983589542 	1e-15 	-2.448302182392826e-21 	0 	1e-15 	0 	1e-15
0.3319469551822883 	1e-15 	2.055361485246227e-21 	0 	1e-15 	0 	1e-15
0.3383940925682023 	1e-15 	4.776263515053697e-21 	0 	1e-15 	0 	1e-15
0.3449356740536256 	9.999999999999999e-16 	5.723895341315594e-21 	0 	9.999999999999999e-16 	0 	9.999999999999999e-16
0.3483973892850205 	1e-15 	5.730285315639482e-21 	0 	1e-15 	0 	1e-15
0.3517402249323008 	1e-15 	5.120688193090241e-21 	0 	1e-15 	0 	1e-15
0.3581381333936514 	1e-15 	3.663909487448203e-21 	0 	1e-15 	0 	1e-15
0.3615299382320033 	1e-15 	2.740055340900511e-21 	0 	1e-15 	0 	1e-15
0.3651410198529023 	1e-15 	1.602366269261078e-21 	0 	1e-15 	0 	1e-15
0.3720744170095045 	1e-15 	-9.179177297156071e-22 	0 	1e-15 	0 	1e-15
0.3791093814837858 	9.999999999999999e-16 	-4.36366069274969e-21 	0 	9.999999999999999e-16 	0 	9.999999999999999e-16
0.38624740113513 	1e-15 	-9.002216581764182e-21 	0 	1e-15 	0 	1e-15
0.3900247432662514 	1e-15 	-1.177689501557992e-20 	0 	1e-15 	0 	1e-15
0.3936723667950068 	1e-15 	-1.48384524789949e-20 	0 	1e-15 	0 	1e-15
0.3988956114867776 	1e-15 	-1.936585029615314e-20 	0 	1e-15 	0 	1e-15
0.4025966690435211 	9.999999999999999e-16 	-2.277409919491939e-20 	0 	9.999999999999999e-16 	0 	9.999999999999999e-16
0.408294998600486 	1e-15 	-2.831487294516558e-20 	0 	1e-15 	0 	1e-15
0.4158605582842844 	9.999999999999999e-16 	-3.601658615313734e-20 	0 	9.999999999999999e-16 	0 	9.999999999999999e-16
0.4235369458330482 	1e-15 	-4.388516117834971e-20 	0 	1e-15 	0 	1e-15
0.4313257847638955 	1e-15 	-5.144248063139623e-20 	0 	1e-15 	0 	1e-15
0.4392287223768422 	1e-15 	-5.818478016556045e-20 	0 	1e-15 	0 	1e-15
0.4472474301031983 	1e-15 	-6.372113427261806e-20 	0 	1e-15 	0 	1e-15
0.4553836038590668 	1e-15 	-6.790397196772028e-20 	0 	1e-15 	0 	1e-15
0.4636389644040213 	9.999999999999999e-16 	-7.084170909576675e-20 	0 	9.999999999999999e-16 	0 	9.999999999999999e-16
0.4720152577050385 	1e-15 	-7.28165213704332e-20 	0 	1e-15 	0 	1e-15
0.4805142553057609 	1e-15 	-7.403540363472889e-20 	0 	1e-15 	0 	1e-15
0.4850118083075186 	1e-15 	-7.446684121339339e-20 	0 	1e-15 	0 	1e-15
0.4893549097745189 	1e-15 	-7.445482172910365e-20 	0 	1e-15 	0 	1e-15
0.4976672435402643 	1e-15 	-7.392056852662552e-20 	0 	1e-15 	0 	1e-15
0.5020739670898382 	1e-15 	-7.337021621883297e-20 	0 	1e-15 	0 	1e-15
0.5067655808991931 	9.999999999999999e-16 	-7.235613128448601e-20 	0 	9.999999999999999e-16 	0 	9.999999999999999e-16
0.515773635897839 	1e-15 	-7.026521488318746e-20 	0 	1e-15 	0 	1e-15
0.524913649871725 	9.999999999999997e-16 	-6.813196187314799e-20 	0 	9.999999999999997e-16 	0 	9.999999999999997e-16
0.5341875558875506 	1e-15 	-6.608809557813889e-20 	0 	1e-15 	0 	1e-15
0.5435973153295051 	9.999999999999999e-16 	-6.393348836820012e-20 	0 	9.999999999999999e-16 	0 	9.999999999999999e-16
0.5531449183140891 	1e-15 	-6.148660918270203e-20 	0 	1e-15 	0 	1e-15
0.5628323841110155 	1e-15 	-5.889879567190963e-20 	0 	1e-15 	0 	1e-15
0.5726617615702739 	1e-15 	-5.646703566260709e-20 	0 	1e-15 	0 	1e-15
0.5826351295554524 	1e-15 	-5.416803003205844e-20 	0 	1e-15 	0 	1e-15
0.5927545973834067 	9.999999999999999e-16 	-5.17283945248355e-20 	0 	9.999999999999999e-16 	0 	9.999999999999999e-16
0.6030223052703696 	1e-15 	-4.892852293542038e-20 	0 	1e-15 	0 	1e-15
0.6134404247845964 	9.999999999999999e-16 	-4.565625042305372e-20 	0 	9.999999999999999e-16 	0 	9.999999999999999e-16
0.62401115930564 	1e-15 	-4.195767695331213e-20 	0 	1e-15 	0 	1e-15
0.6347367444903554 	1e-15 	-3.831797703636706e-20 	0 	1e-15 	0 	1e-15
0.6456194487457292 	1e-15 	-3.510422776137911e-20 	0 	1e-15 	0 	1e-15
0.6566615737086361 	1e-15 	-3.1973307055518e-20 	0 	1e-15 	0 	1e-15
0.6678654547326235 	9.999999999999999e-16 	-2.873311441516976e-20 	0 	9.999999999999999e-16 	0 	9.999999999999999e-16
0.6792334613818274 	9.999999999999999e-16 	-2.560709719441218e-20 	0 	9.999999999999999e-16 	0 	9.999999999999999e-16
0.6907679979321228 	9.999999999999999e-16 	-2.262203829408009e-20 	0 	9.999999999999999e-16 	0 	9.999999999999999e-16
0.7024715038796162 	9.999999999999999e-16 	-1.971927239766272e-20 	0 	9.999999999999999e-16 	0 	9.999999999999999e-16
0.7143464544565863 	9.999999999999999e-16 	-1.7065662793266e-20 	0 	9.999999999999999e-16 	0 	9.999999999999999e-16
0.7263953611549832 	1e-15 	-1.489673115535708e-20 	0 	1e-15 	0 	1e-15
0.7386207722575964 	1e-15 	-1.323431346267302e-20 	0 	1e-15 	0 	1e-15
0.7510252733770036 	9.999999999999999e-16 	-1.193273992788537e-20 	0 	9.999999999999999e-16 	0 	9.999999999999999e-16
0.7636114880024152 	9.999999999999999e-16 	-1.091215008208944e-20 	0 	9.999999999999999e-16 	0 	9.999999999999999e-16
0.7763820780545276 	1e-15 	-1.019370402456304e-20 	0 	1e-15 	0 	1e-15
0.7893397444485077 	9.999999999999999e-16 	-9.775420188258016e-21 	0 	9.999999999999999e-16 	0 	9.999999999999999e-16
0.8024872276652214 	1e-15 	-9.577818122938677e-21 	0 	1e-15 	0 	1e-15
0.8158273083308323 	1e-15 	-9.473262323748026e-21 	0 	1e-15 	0 	1e-15
0.8293628078048895 	1e-15 	-9.37883265503506e-21 	0 	1e-15 	0 	1e-15
0.8430965887770312 	1e-15 	-9.31274669326411e-21 	0 	1e-15 	0 	1e-15
0.8570315558724292 	9.999999999999999e-16 	-9.230153832897932e-21 	0 	9.999999999999999e-16 	0 	9.999999999999999e-16
0.8711706562661019 	1e-15 	-8.966279810425567e-21 	0 	1e-15 	0 	1e-15
0.8855168803062272 	1e-15 	-8.46884523084478e-21 	0 	1e-15 	0 	1e-15
0.9000732621465863 	1e-15 	-7.87166711998673e-21 	0 	1e-15 	0 	1e-15
0.9148428803882714 	1e-15 	-7.260045363308075e-21 	0 	1e-15 	0 	1e-15
0.9298288587307945 	1e-15 	-6.442601667497497e-21 	0 	1e-15 	0 	1e-15
0.9450343666327338 	1e-15 	-5.299144676969301e-21 	0 	1e-15 	0 	1e-15
0.9604626199820584 	1e-15 	-3.978133695329882e-21 	0 	1e-15 	0 	1e-15
0.9761168817762724 	1e-15 	-2.085958091914564e-21 	0 	1e-15 	0 	1e-15
0.9920004628125223 	1e-15 	-1.624109393712976e-21 	0 	1e-15 	0 	1e-15
